nm, A
700.000000, 0.064296
699.000000, 0.064422
698.000000, 0.064483
697.000000, 0.064619
696.000000, 0.064775
695.000000, 0.064916
694.000000, 0.065027
693.000000, 0.065178
692.000000, 0.065254
691.000000, 0.065279
690.000000, 0.065279
689.000000, 0.065380
688.000000, 0.065421
687.000000, 0.065436
686.000000, 0.065608
685.000000, 0.065608
684.000000, 0.065360
683.000000, 0.065522
682.000000, 0.065598
681.000000, 0.065805
680.000000, 0.065875
679.000000, 0.065921
678.000000, 0.065911
677.000000, 0.065941
676.000000, 0.065805
675.000000, 0.065961
674.000000, 0.065987
673.000000, 0.066073
672.000000, 0.066174
671.000000, 0.066260
670.000000, 0.066346
669.000000, 0.066467
668.000000, 0.066477
667.000000, 0.066599
666.000000, 0.066573
665.000000, 0.066568
664.000000, 0.066639
663.000000, 0.066685
662.000000, 0.066675
661.000000, 0.066710
660.000000, 0.066781
659.000000, 0.066923
658.000000, 0.066974
657.000000, 0.067110
656.000000, 0.067202
655.000000, 0.067181
654.000000, 0.067156
653.000000, 0.067186
652.000000, 0.067166
651.000000, 0.067141
650.000000, 0.067222
649.000000, 0.067232
648.000000, 0.067308
647.000000, 0.067404
646.000000, 0.067399
645.000000, 0.067455
644.000000, 0.067521
643.000000, 0.067557
642.000000, 0.067460
641.000000, 0.067572
640.000000, 0.067481
639.000000, 0.067470
638.000000, 0.067496
637.000000, 0.067501
636.000000, 0.067623
635.000000, 0.067678
634.000000, 0.067684
633.000000, 0.067709
632.000000, 0.067638
631.000000, 0.067587
630.000000, 0.067577
629.000000, 0.067612
628.000000, 0.067623
627.000000, 0.067709
626.000000, 0.067755
625.000000, 0.067750
624.000000, 0.067821
623.000000, 0.067775
622.000000, 0.067755
621.000000, 0.067668
620.000000, 0.067577
619.000000, 0.067582
618.000000, 0.067536
617.000000, 0.067541
616.000000, 0.067643
615.000000, 0.067653
614.000000, 0.067678
613.000000, 0.067633
612.000000, 0.067623
611.000000, 0.067567
610.000000, 0.067501
609.000000, 0.067486
608.000000, 0.067440
607.000000, 0.067552
606.000000, 0.067633
605.000000, 0.067709
604.000000, 0.067800
603.000000, 0.067892
602.000000, 0.067927
601.000000, 0.067998
600.000000, 0.067993
599.000000, 0.068125
598.000000, 0.068308
597.000000, 0.068542
596.000000, 0.068832
595.000000, 0.069138
594.000000, 0.069464
593.000000, 0.069775
592.000000, 0.070070
591.000000, 0.070479
590.000000, 0.070867
589.000000, 0.071287
588.000000, 0.071871
587.000000, 0.072460
586.000000, 0.073148
585.000000, 0.073791
584.000000, 0.074373
583.000000, 0.074977
582.000000, 0.075498
581.000000, 0.076041
580.000000, 0.076538
579.000000, 0.076984
578.000000, 0.077420
577.000000, 0.077820
576.000000, 0.078173
575.000000, 0.078423
574.000000, 0.078626
573.000000, 0.078771
572.000000, 0.078917
571.000000, 0.078985
570.000000, 0.079157
569.000000, 0.079209
568.000000, 0.079365
567.000000, 0.079381
566.000000, 0.079407
565.000000, 0.079376
564.000000, 0.079345
563.000000, 0.079272
562.000000, 0.079329
561.000000, 0.079324
560.000000, 0.079094
559.000000, 0.078735
558.000000, 0.078714
557.000000, 0.078516
556.000000, 0.078314
555.000000, 0.078189
554.000000, 0.078048
553.000000, 0.077965
552.000000, 0.077976
551.000000, 0.077820
550.000000, 0.077685
549.000000, 0.077467
548.000000, 0.077197
547.000000, 0.077067
546.000000, 0.076943
545.000000, 0.076823
544.000000, 0.076787
543.000000, 0.076720
542.000000, 0.076632
541.000000, 0.076512
540.000000, 0.076440
539.000000, 0.076316
538.000000, 0.076373
537.000000, 0.076414
536.000000, 0.076409
535.000000, 0.076393
534.000000, 0.076362
533.000000, 0.076269
532.000000, 0.076119
531.000000, 0.076150
530.000000, 0.076155
529.000000, 0.076176
528.000000, 0.076254
527.000000, 0.076243
526.000000, 0.076202
525.000000, 0.076155
524.000000, 0.076078
523.000000, 0.076124
522.000000, 0.076129
521.000000, 0.076114
520.000000, 0.076264
519.000000, 0.076155
518.000000, 0.076088
517.000000, 0.076016
516.000000, 0.076005
515.000000, 0.076031
514.000000, 0.076124
513.000000, 0.076129
512.000000, 0.076135
511.000000, 0.076041
510.000000, 0.075990
509.000000, 0.076062
508.000000, 0.075984
507.000000, 0.076088
506.000000, 0.076166
505.000000, 0.076119
504.000000, 0.076016
503.000000, 0.076057
502.000000, 0.076026
501.000000, 0.076140
500.000000, 0.076223
499.000000, 0.076228
498.000000, 0.076150
497.000000, 0.076155
496.000000, 0.076202
495.000000, 0.076248
494.000000, 0.076331
493.000000, 0.076461
492.000000, 0.076492
491.000000, 0.076424
490.000000, 0.076435
489.000000, 0.076554
488.000000, 0.076725
487.000000, 0.076865
486.000000, 0.076886
485.000000, 0.076854
484.000000, 0.076974
483.000000, 0.077026
482.000000, 0.077228
481.000000, 0.077420
480.000000, 0.077560
479.000000, 0.077607
478.000000, 0.077643
477.000000, 0.077809
476.000000, 0.078038
475.000000, 0.078241
474.000000, 0.078371
473.000000, 0.078355
472.000000, 0.078485
471.000000, 0.078641
470.000000, 0.078959
469.000000, 0.079188
468.000000, 0.079292
467.000000, 0.079303
466.000000, 0.079407
465.000000, 0.079605
464.000000, 0.079809
463.000000, 0.079960
462.000000, 0.080023
461.000000, 0.080028
460.000000, 0.080101
459.000000, 0.080242
458.000000, 0.080279
457.000000, 0.080321
456.000000, 0.080253
455.000000, 0.080237
454.000000, 0.080341
453.000000, 0.080415
452.000000, 0.080441
451.000000, 0.080404
450.000000, 0.080352
449.000000, 0.080373
448.000000, 0.080629
447.000000, 0.080723
446.000000, 0.080781
445.000000, 0.080959
444.000000, 0.081252
443.000000, 0.081650
442.000000, 0.082138
441.000000, 0.082594
440.000000, 0.082799
439.000000, 0.083199
438.000000, 0.083751
437.000000, 0.084278
436.000000, 0.084590
435.000000, 0.084875
434.000000, 0.085070
433.000000, 0.085488
432.000000, 0.085831
431.000000, 0.085937
430.000000, 0.086011
429.000000, 0.086165
428.000000, 0.086329
427.000000, 0.086382
426.000000, 0.086478
425.000000, 0.086419
424.000000, 0.086536
423.000000, 0.086573
422.000000, 0.086727
421.000000, 0.086801
420.000000, 0.086690
419.000000, 0.086690
418.000000, 0.086780
417.000000, 0.086764
416.000000, 0.086647
415.000000, 0.086599
414.000000, 0.086705
413.000000, 0.086764
412.000000, 0.086684
411.000000, 0.086621
410.000000, 0.086721
409.000000, 0.086769
408.000000, 0.086764
407.000000, 0.086668
406.000000, 0.086610
405.000000, 0.086833
404.000000, 0.086896
403.000000, 0.086785
402.000000, 0.086737
401.000000, 0.086912
400.000000, 0.086981
399.000000, 0.086944
398.000000, 0.086923
397.000000, 0.087119
396.000000, 0.087162
395.000000, 0.087247
394.000000, 0.087284
393.000000, 0.087422
392.000000, 0.087581
391.000000, 0.087549
390.000000, 0.087693
389.000000, 0.087810
388.000000, 0.087996
387.000000, 0.087959
386.000000, 0.088214
385.000000, 0.088368
384.000000, 0.088470
383.000000, 0.083404
382.000000, 0.084669
381.000000, 0.085292
380.000000, 0.086033
379.000000, 0.086403
378.000000, 0.086949
377.000000, 0.087528
376.000000, 0.087805
375.000000, 0.088097
374.000000, 0.088677
373.000000, 0.088970
372.000000, 0.089210
371.000000, 0.089381
370.000000, 0.089781
369.000000, 0.089915
368.000000, 0.090070
367.000000, 0.090219
366.000000, 0.090476
365.000000, 0.090364
364.000000, 0.090583
363.000000, 0.090669
362.000000, 0.090695
361.000000, 0.090733
360.000000, 0.090952
359.000000, 0.090888
358.000000, 0.090958
357.000000, 0.090979
356.000000, 0.091226
355.000000, 0.091279
354.000000, 0.091467
353.000000, 0.091617
352.000000, 0.091858
351.000000, 0.091917
350.000000, 0.092234
349.000000, 0.092476
348.000000, 0.092680
347.000000, 0.093175
346.000000, 0.093423
345.000000, 0.093633
344.000000, 0.094123
343.000000, 0.094506
342.000000, 0.094841
341.000000, 0.095079
340.000000, 0.095485
339.000000, 0.095771
338.000000, 0.096140
337.000000, 0.096557
336.000000, 0.096595
335.000000, 0.097002
334.000000, 0.097176
333.000000, 0.097355
332.000000, 0.097856
331.000000, 0.097888
330.000000, 0.097948
329.000000, 0.098291
328.000000, 0.098569
327.000000, 0.098776
326.000000, 0.098738
325.000000, 0.099000
324.000000, 0.099141
323.000000, 0.099322
322.000000, 0.099365
321.000000, 0.099655
320.000000, 0.099600
319.000000, 0.099709
318.000000, 0.099682
317.000000, 0.099813
316.000000, 0.100026
315.000000, 0.099895
314.000000, 0.100076
313.000000, 0.100190
312.000000, 0.100037
311.000000, 0.100179
310.000000, 0.100338
309.000000, 0.100294
308.000000, 0.100486
307.000000, 0.100393
306.000000, 0.100628
305.000000, 0.100749
304.000000, 0.100743
303.000000, 0.101077
302.000000, 0.101012
301.000000, 0.101286
300.000000, 0.101324
