nm, A
700.000000, 0.048599
699.000000, 0.048822
698.000000, 0.049230
697.000000, 0.049511
696.000000, 0.049824
695.000000, 0.050107
694.000000, 0.050478
693.000000, 0.050729
692.000000, 0.051067
691.000000, 0.051440
690.000000, 0.051889
689.000000, 0.052300
688.000000, 0.052681
687.000000, 0.053208
686.000000, 0.053647
685.000000, 0.054105
684.000000, 0.054730
683.000000, 0.055262
682.000000, 0.055835
681.000000, 0.056300
680.000000, 0.057013
679.000000, 0.057613
678.000000, 0.058386
677.000000, 0.059073
676.000000, 0.060120
675.000000, 0.060770
674.000000, 0.061840
673.000000, 0.062822
672.000000, 0.063879
671.000000, 0.065102
670.000000, 0.066311
669.000000, 0.067642
668.000000, 0.069219
667.000000, 0.070662
666.000000, 0.072436
665.000000, 0.074365
664.000000, 0.076451
663.000000, 0.078614
662.000000, 0.081150
661.000000, 0.083913
660.000000, 0.086733
659.000000, 0.089963
658.000000, 0.093341
657.000000, 0.096952
656.000000, 0.100852
655.000000, 0.105230
654.000000, 0.109729
653.000000, 0.114667
652.000000, 0.119907
651.000000, 0.125520
650.000000, 0.131210
649.000000, 0.137340
648.000000, 0.143612
647.000000, 0.150087
646.000000, 0.156794
645.000000, 0.163448
644.000000, 0.170040
643.000000, 0.176553
642.000000, 0.183074
641.000000, 0.189216
640.000000, 0.195128
639.000000, 0.200482
638.000000, 0.205443
637.000000, 0.209939
636.000000, 0.213618
635.000000, 0.216744
634.000000, 0.219297
633.000000, 0.221286
632.000000, 0.222745
631.000000, 0.223678
630.000000, 0.224087
629.000000, 0.224069
628.000000, 0.223693
627.000000, 0.223013
626.000000, 0.222153
625.000000, 0.221034
624.000000, 0.219572
623.000000, 0.218004
622.000000, 0.216392
621.000000, 0.214603
620.000000, 0.212719
619.000000, 0.210714
618.000000, 0.208721
617.000000, 0.206792
616.000000, 0.204832
615.000000, 0.202972
614.000000, 0.201152
613.000000, 0.199676
612.000000, 0.198074
611.000000, 0.196866
610.000000, 0.195720
609.000000, 0.194757
608.000000, 0.194049
607.000000, 0.193351
606.000000, 0.192866
605.000000, 0.192497
604.000000, 0.192390
603.000000, 0.192243
602.000000, 0.192500
601.000000, 0.192778
600.000000, 0.193337
599.000000, 0.194078
598.000000, 0.194881
597.000000, 0.195947
596.000000, 0.197097
595.000000, 0.198453
594.000000, 0.200037
593.000000, 0.201774
592.000000, 0.203740
591.000000, 0.205885
590.000000, 0.208197
589.000000, 0.210785
588.000000, 0.213590
587.000000, 0.216501
586.000000, 0.219469
585.000000, 0.222668
584.000000, 0.225936
583.000000, 0.229156
582.000000, 0.232298
581.000000, 0.235236
580.000000, 0.237845
579.000000, 0.240149
578.000000, 0.241918
577.000000, 0.243343
576.000000, 0.244092
575.000000, 0.244673
574.000000, 0.244845
573.000000, 0.244818
572.000000, 0.244645
571.000000, 0.244477
570.000000, 0.244076
569.000000, 0.243933
568.000000, 0.243648
567.000000, 0.243724
566.000000, 0.243652
565.000000, 0.243949
564.000000, 0.244611
563.000000, 0.245482
562.000000, 0.246508
561.000000, 0.247886
560.000000, 0.249511
559.000000, 0.251576
558.000000, 0.254038
557.000000, 0.257161
556.000000, 0.260679
555.000000, 0.264545
554.000000, 0.269058
553.000000, 0.273968
552.000000, 0.279016
551.000000, 0.284761
550.000000, 0.290598
549.000000, 0.296810
548.000000, 0.303167
547.000000, 0.309546
546.000000, 0.315763
545.000000, 0.321932
544.000000, 0.327640
543.000000, 0.333018
542.000000, 0.338133
541.000000, 0.342813
540.000000, 0.347127
539.000000, 0.350987
538.000000, 0.354429
537.000000, 0.357502
536.000000, 0.360300
535.000000, 0.362995
534.000000, 0.365289
533.000000, 0.367694
532.000000, 0.369949
531.000000, 0.372254
530.000000, 0.374535
529.000000, 0.376973
528.000000, 0.379343
527.000000, 0.382040
526.000000, 0.385124
525.000000, 0.388272
524.000000, 0.391627
523.000000, 0.395088
522.000000, 0.398852
521.000000, 0.402709
520.000000, 0.406593
519.000000, 0.410720
518.000000, 0.414884
517.000000, 0.419255
516.000000, 0.423566
515.000000, 0.427925
514.000000, 0.432080
513.000000, 0.436365
512.000000, 0.440492
511.000000, 0.444570
510.000000, 0.448528
509.000000, 0.452280
508.000000, 0.455875
507.000000, 0.459095
506.000000, 0.461901
505.000000, 0.464519
504.000000, 0.466784
503.000000, 0.468565
502.000000, 0.470075
501.000000, 0.470833
500.000000, 0.471332
499.000000, 0.471372
498.000000, 0.471052
497.000000, 0.470282
496.000000, 0.469228
495.000000, 0.467796
494.000000, 0.466059
493.000000, 0.464056
492.000000, 0.461950
491.000000, 0.459578
490.000000, 0.457321
489.000000, 0.454774
488.000000, 0.452101
487.000000, 0.449488
486.000000, 0.446718
485.000000, 0.444305
484.000000, 0.441756
483.000000, 0.439587
482.000000, 0.437221
481.000000, 0.435187
480.000000, 0.433424
479.000000, 0.431999
478.000000, 0.430869
477.000000, 0.429919
476.000000, 0.429313
475.000000, 0.429041
474.000000, 0.429232
473.000000, 0.429807
472.000000, 0.430672
471.000000, 0.431921
470.000000, 0.433450
469.000000, 0.435133
468.000000, 0.437277
467.000000, 0.439886
466.000000, 0.442459
465.000000, 0.445305
464.000000, 0.448386
463.000000, 0.451441
462.000000, 0.454728
461.000000, 0.458248
460.000000, 0.461820
459.000000, 0.465431
458.000000, 0.469241
457.000000, 0.473204
456.000000, 0.477518
455.000000, 0.481981
454.000000, 0.486769
453.000000, 0.492018
452.000000, 0.497659
451.000000, 0.504238
450.000000, 0.511527
449.000000, 0.519366
448.000000, 0.527995
447.000000, 0.537711
446.000000, 0.549114
445.000000, 0.561354
444.000000, 0.575163
443.000000, 0.590685
442.000000, 0.608275
441.000000, 0.627995
440.000000, 0.650146
439.000000, 0.674906
438.000000, 0.702465
437.000000, 0.733678
436.000000, 0.768569
435.000000, 0.807949
434.000000, 0.852386
433.000000, 0.902308
432.000000, 0.958240
431.000000, 1.021134
430.000000, 1.091690
429.000000, 1.170796
428.000000, 1.259109
427.000000, 1.358644
426.000000, 1.469478
425.000000, 1.594683
424.000000, 1.734200
423.000000, 1.889763
422.000000, 2.057754
421.000000, 2.229252
420.000000, 2.404108
419.000000, 2.576851
418.000000, 2.731377
417.000000, 2.856331
416.000000, 2.926581
415.000000, 2.968918
414.000000, 2.983876
413.000000, 2.994158
412.000000, 3.004831
411.000000, 2.994301
410.000000, 2.999465
409.000000, 2.999417
408.000000, 3.004751
407.000000, 2.999518
406.000000, 2.994312
405.000000, 2.994089
404.000000, 2.988824
403.000000, 2.973696
402.000000, 2.983844
401.000000, 2.988808
400.000000, 2.983600
399.000000, 2.968573
398.000000, 2.968594
397.000000, 2.968398
396.000000, 2.958596
395.000000, 2.921527
394.000000, 2.930445
393.000000, 2.916943
392.000000, 2.899581
391.000000, 2.883067
390.000000, 2.859229
389.000000, 2.833009
388.000000, 2.794733
387.000000, 2.753679
386.000000, 2.732809
385.000000, 2.688915
384.000000, 2.637373
383.000000, 2.962354
382.000000, 2.781792
381.000000, 2.732864
380.000000, 2.630666
379.000000, 2.493641
378.000000, 2.452153
377.000000, 2.367165
376.000000, 2.303669
375.000000, 2.246322
374.000000, 2.180540
373.000000, 2.131433
372.000000, 2.082130
371.000000, 2.037298
370.000000, 2.003884
369.000000, 1.974074
368.000000, 1.940049
367.000000, 1.910650
366.000000, 1.887921
365.000000, 1.862361
364.000000, 1.839010
363.000000, 1.811727
362.000000, 1.787745
361.000000, 1.764693
360.000000, 1.741140
359.000000, 1.715987
358.000000, 1.691032
357.000000, 1.665487
